"Time.sec.","Intensity"
0,525.317
2,525.317
4,525.317
6,524.925
8,524.532
10,524.14
12,524.063
14,523.985
16,523.908
18,524.019
20,524.13
22,524.241
24,524.267
26,524.292
28,524.318
30,524.275
32,524.233
34,524.19
36,523.938
38,523.685
40,523.433
42,523.056
44,522.678
46,522.301
48,522.291
50,522.28
52,522.27
54,522.084
56,521.897
58,521.711
60,521.911
62,522.11
64,522.31
66,522.145
68,521.98
70,521.815
72,521.933
74,522.052
76,522.17
78,521.723
80,521.276
82,520.829
84,520.81
86,520.79
88,520.771
90,520.549
92,520.327
94,520.105
96,520.137
98,520.169
100,520.201
102,520.251
104,520.301
106,520.351
108,520.178
110,520.005
112,519.832
114,519.942
116,520.051
118,520.161
120,520.135
122,520.109
124,520.083
126,519.654
128,519.225
130,518.796
132,518.726
134,518.656
136,518.586
138,518.973
140,519.36
142,519.747
144,519.154
146,518.562
148,517.969
150,517.818
152,517.666
154,517.515
156,517.998
158,518.48
160,518.963
162,518.454
164,517.946
166,517.437
168,517.491
170,517.544
172,517.598
174,517.691
176,517.785
178,517.878
180,517.557
182,517.235
184,516.914
186,516.825
188,516.735
190,516.646
192,516.741
194,516.835
196,516.93
198,516.778
200,516.627
202,516.475
204,516.461
206,516.447
208,516.433
210,516.555
212,516.677
214,516.799
216,516.385
218,515.971
220,515.557
222,515.768
224,515.978
226,516.189
228,515.794
230,515.398
232,515.003
234,515.103
236,515.204
238,515.304
240,514.965
242,514.625
244,514.286
246,514.332
248,514.378
250,514.424
252,514.174
254,513.924
256,513.674
258,513.625
260,513.576
262,513.527
264,513.658
266,513.789
268,513.92
270,513.857
272,513.794
274,513.731
276,513.374
278,513.017
280,512.66
282,512.755
284,512.85
286,512.945
288,512.951
290,512.956
292,512.962
294,512.896
296,512.831
298,512.765
300,512.664
302,512.563
304,512.462
306,512.651
308,512.84
310,513.029
312,512.797
314,512.566
316,512.334
318,512.147
320,511.96
322,511.773
324,511.833
326,511.892
328,511.952
330,511.947
332,511.942
334,511.937
336,511.85
338,511.762
340,511.675
342,511.602
344,511.53
346,511.457
348,511.581
350,511.706
352,511.83
354,511.308
356,510.787
358,510.265
360,510.279
362,510.294
364,510.308
366,510.353
368,510.397
370,510.442
372,510.208
374,509.973
376,509.739
378,509.448
380,509.158
382,508.867
384,509.103
386,509.339
388,509.575
390,509.369
392,509.164
394,508.958
396,509.101
398,509.245
400,509.388
402,509.055
404,508.722
406,508.389
408,508.293
410,508.198
412,508.102
414,508.077
416,508.051
418,508.026
420,508.091
422,508.157
424,508.222
426,508.138
428,508.053
430,507.969
432,507.891
434,507.814
436,507.736
438,507.698
440,507.659
442,507.621
444,507.645
446,507.668
448,507.692
450,507.489
452,507.287
454,507.084
456,506.896
458,506.709
460,506.521
462,506.529
464,506.537
466,506.545
468,506.836
470,507.126
472,507.417
474,507.282
476,507.147
478,507.012
480,506.714
482,506.417
484,506.119
486,506.296
488,506.473
490,506.65
492,506.279
494,505.907
496,505.536
498,505.622
500,505.709
502,505.795
504,505.702
506,505.608
508,505.515
510,505.523
512,505.53
514,505.538
516,505.146
518,504.755
520,504.363
522,504.499
524,504.636
526,504.772
528,504.593
530,504.414
532,504.235
534,504.466
536,504.696
538,504.927
540,504.483
542,504.039
544,503.595
546,503.803
548,504.01
550,504.218
552,504.236
554,504.253
556,504.271
558,503.847
560,503.422
562,502.998
564,502.99
566,502.983
568,502.975
570,502.951
572,502.926
574,502.902
576,502.769
578,502.635
580,502.502
582,502.469
584,502.437
586,502.404
588,502.197
590,501.989
592,501.782
594,502.006
596,502.23
598,502.454
600,502.257
900,499.4
902,499.4
904,499.4
906,498.834
908,498.269
910,497.703
912,497.635
914,497.568
916,497.5
918,497.714
920,497.929
922,498.143
924,497.823
926,497.504
928,497.184
930,497.21
932,497.236
934,497.262
936,497.007
938,496.751
940,496.496
942,496.513
944,496.529
946,496.546
948,496.554
950,496.563
952,496.571
954,496.324
956,496.078
958,495.831
960,495.759
962,495.688
964,495.616
966,495.162
968,494.708
970,494.254
972,494.473
974,494.693
976,494.912
978,495.262
980,495.612
982,495.962
984,495.605
986,495.249
988,494.892
990,494.839
992,494.787
994,494.734
996,494.556
998,494.378
1000,494.2
1002,493.872
1004,493.545
1006,493.217
1008,493.283
1010,493.348
1012,493.414
1014,493.415
1016,493.416
1018,493.417
1020,493.698
1022,493.979
1024,494.26
1026,493.882
1028,493.503
1030,493.125
1032,492.929
1034,492.734
1036,492.538
1038,492.487
1040,492.437
1042,492.386
1044,492.478
1046,492.569
1048,492.661
1050,492.311
1052,491.96
1054,491.61
1056,491.65
1058,491.689
1060,491.729
1062,491.615
1064,491.5
1066,491.386
1068,491.288
1070,491.189
1072,491.091
1074,491.309
1076,491.526
1078,491.744
1080,491.598
1082,491.453
1084,491.307
1086,491.087
1088,490.867
1090,490.647
1092,490.66
1094,490.673
1096,490.686
1098,490.602
1100,490.518
1102,490.434
1104,490.339
1106,490.244
1108,490.149
1110,489.841
1112,489.533
1114,489.225
1116,489.391
1118,489.557
1120,489.723
1122,489.583
1124,489.443
1126,489.303
1128,489.191
1130,489.08
1132,488.968
1134,488.974
1136,488.981
1138,488.987
1140,488.769
1142,488.551
1144,488.333
1146,488.331
1148,488.33
1150,488.328
1152,488.303
1154,488.277
1156,488.252
1158,488.41
1160,488.568
1162,488.726
1164,488.678
1166,488.629
1168,488.581
1170,488.295
1172,488.01
1174,487.724
1176,487.582
1178,487.441
1180,487.299
1182,487.177
1184,487.054
1186,486.932
1188,487.011
1190,487.089
1192,487.168
1194,486.899
1196,486.629
1198,486.36
1200,486.219
1202,486.078
1204,485.937
1206,486.032
1208,486.128
1210,486.223
1212,486.498
1214,486.772
1216,487.047
1218,486.608
1220,486.168
1222,485.729
1224,485.772
1226,485.816
1228,485.859
1230,485.79
1232,485.72
1234,485.651
1236,485.683
1238,485.715
1240,485.747
1242,485.274
1244,484.802
1246,484.329
1248,484.786
1250,485.243
1252,485.7
1254,485.267
1256,484.833
1258,484.4
1260,484.452
1262,484.504
1264,484.556
1266,484.506
1268,484.455
1270,484.405
1272,484.108
1274,483.812
1276,483.515
1278,483.656
1280,483.797
1282,483.938
1284,483.926
1286,483.915
1288,483.903
1290,483.653
1292,483.403
1294,483.153
1296,483.259
1298,483.364
1300,483.47
1302,483.184
1304,482.897
1306,482.611
1308,482.61
1310,482.61
1312,482.609
1314,482.712
1316,482.815
1318,482.918
1320,482.451
1322,481.983
1324,481.516
1326,481.759
1328,482.002
1330,482.245
1332,482.164
1334,482.084
1336,482.003
1338,481.878
1340,481.752
1342,481.627
1344,481.582
1346,481.538
1348,481.493
1350,481.213
1352,480.932
1354,480.652
1356,480.873
1358,481.093
1360,481.314
1362,481.201
1364,481.087
1366,480.974
1368,480.809
1370,480.643
1372,480.478
1374,480.603
1376,480.728
1378,480.853
1380,480.748
1382,480.642
1384,480.537
1386,480.305
1388,480.074
1390,479.842
1392,479.794
1394,479.745
1396,479.697
1398,479.754
1400,479.811
1402,479.868
1404,479.673
1406,479.479
1408,479.284
1410,479.429
1412,479.573
1414,479.718
1416,479.529
1418,479.339
1420,479.15
1422,478.967
1424,478.784
1426,478.601
1428,478.686
1430,478.77
1432,478.855
1434,478.626
1436,478.396
1438,478.167
1440,478.226
1442,478.284
1444,478.343
1446,477.842
1448,477.34
1450,476.839
1452,477.154
1454,477.468
1456,477.783
1458,477.572
1460,477.36
1462,477.149
1464,477.134
1466,477.118
1468,477.103
1470,477.035
1472,476.967
1474,476.899
1476,476.507
1478,476.114
1480,475.722
1482,475.934
1484,476.146
1486,476.358
1488,476.459
1490,476.559
1492,476.66
1494,476.315
1496,475.971
1498,475.626
1500,475.792
1800,470.235
1802,470.235
1804,470.235
1806,470.711
1808,471.188
1810,471.664
1812,471.608
1814,471.552
1816,471.496
1818,471.325
1820,471.155
1822,470.984
1824,470.736
1826,470.487
1828,470.239
1830,470.467
1832,470.695
1834,470.923
1836,470.705
1838,470.487
1840,470.269
1842,470.159
1844,470.05
1846,469.94
1848,470.031
1850,470.122
1852,470.213
1854,470.075
1856,469.937
1858,469.799
1860,469.813
1862,469.826
1864,469.84
1866,469.647
1868,469.453
1870,469.26
1872,469.106
1874,468.952
1876,468.798
1878,468.716
1880,468.633
1882,468.551
1884,468.563
1886,468.574
1888,468.586
1890,468.677
1892,468.767
1894,468.858
1896,468.626
1898,468.395
1900,468.163
1902,468.182
1904,468.202
1906,468.221
1908,467.728
1910,467.234
1912,466.741
1914,467.023
1916,467.305
1918,467.587
1920,467.793
1922,467.999
1924,468.205
1926,467.71
1928,467.215
1930,466.72
1932,466.837
1934,466.954
1936,467.071
1938,467
1940,466.93
1942,466.859
1944,466.723
1946,466.587
1948,466.451
1950,466.012
1952,465.573
1954,465.134
1956,465.244
1958,465.355
1960,465.465
1962,465.665
1964,465.866
1966,466.066
1968,465.855
1970,465.643
1972,465.432
1974,465.466
1976,465.499
1978,465.533
1980,465.312
1982,465.09
1984,464.869
1986,464.904
1988,464.938
1990,464.973
1992,464.753
1994,464.534
1996,464.314
1998,464.155
2000,463.997
2002,463.838
2004,464.321
2006,464.803
2008,465.286
2010,464.979
2012,464.673
2014,464.366
2016,464.254
2018,464.143
2020,464.031
2022,463.879
2024,463.726
2026,463.574
2028,463.54
2030,463.506
2032,463.472
2034,463.581
2036,463.691
2038,463.8
2040,463.557
2042,463.313
2044,463.07
2046,462.858
2048,462.646
2050,462.434
2052,462.406
2054,462.377
2056,462.349
2058,462.376
2060,462.402
2062,462.429
2064,462.385
2066,462.342
2068,462.298
2070,461.988
2072,461.679
2074,461.369
2076,461.481
2078,461.594
2080,461.706
2082,461.524
2084,461.341
2086,461.159
2088,461.104
2090,461.05
2092,460.995
2094,461.054
2096,461.113
2098,461.172
2100,461.093
2102,461.015
2104,460.936
2106,460.956
2108,460.975
2110,460.995
2112,460.829
2114,460.662
2116,460.496
2118,460.557
2120,460.619
2122,460.68
2124,460.436
2126,460.193
2128,459.949
2130,459.904
2132,459.858
2134,459.813
2136,459.68
2138,459.547
2140,459.414
2142,459.56
2144,459.707
2146,459.853
2148,459.614
2150,459.376
2152,459.137
2154,459.212
2156,459.286
2158,459.361
2160,459.423
2162,459.484
2164,459.546
2166,459.144
2168,458.743
2170,458.341
2172,458.57
2174,458.798
2176,459.027
2178,458.758
2180,458.489
2182,458.22
2184,458.213
2186,458.205
2188,458.198
2190,457.939
2192,457.68
2194,457.421
2196,457.414
2198,457.407
2200,457.4
2202,457.348
2204,457.296
2206,457.244
2208,457.249
2210,457.253
2212,457.258
2214,456.974
2216,456.689
2218,456.405
2220,456.474
2222,456.544
2224,456.613
2226,456.469
2228,456.325
2230,456.181
2232,456.307
2234,456.433
2236,456.559
2238,456.466
2240,456.373
2242,456.28
2244,456.5
2246,456.719
2248,456.939
2250,456.421
2252,455.902
2254,455.384
2256,455.545
2258,455.706
2260,455.867
2262,455.726
2264,455.584
2266,455.443
2268,455.374
2270,455.306
2272,455.237
2274,455.35
2276,455.464
2278,455.577
2280,455.264
2282,454.951
2284,454.638
2286,454.535
2288,454.432
2290,454.329
2292,454.37
2294,454.411
2296,454.452
2298,454.539
2300,454.627
2302,454.714
2304,454.625
2306,454.536
2308,454.447
2310,454.319
2312,454.191
2314,454.063
2316,453.917
2318,453.77
2320,453.624
2322,453.752
2324,453.879
2326,454.007
2328,453.863
2330,453.719
2332,453.575
2334,453.428
2336,453.282
2338,453.135
2340,453.243
2342,453.352
2344,453.46
2346,453.082
2348,452.703
2350,452.325
2352,452.416
2354,452.506
2356,452.597
2358,452.632
2360,452.666
2362,452.701
2364,452.663
2366,452.624
2368,452.586
2370,452.151
2372,451.715
2374,451.28
2376,451.706
2378,452.133
2380,452.559
2382,452.49
2384,452.42
2386,452.351
2388,452.202
2390,452.053
2392,451.904
2394,451.767
2396,451.63
2398,451.493
2400,451.229
2700,450.237
2702,450.237
2704,450.237
2706,449.927
2708,449.616
2710,449.306
2712,449.152
2714,448.999
2716,448.845
2718,448.427
2720,448.009
2722,447.591
2724,447.746
2726,447.9
2728,448.055
2730,447.986
2732,447.918
2734,447.849
2736,447.674
2738,447.499
2740,447.324
2742,447.615
2744,447.906
2746,448.197
2748,447.781
2750,447.364
2752,446.948
2754,446.952
2756,446.957
2758,446.961
2760,446.748
2762,446.536
2764,446.323
2766,446.556
2768,446.788
2770,447.021
2772,446.865
2774,446.71
2776,446.554
2778,446.37
2780,446.187
2782,446.003
2784,446.108
2786,446.214
2788,446.319
2790,446.203
2792,446.086
2794,445.97
2796,445.717
2798,445.465
2800,445.212
2802,445.287
2804,445.361
2806,445.436
2808,445.192
2810,444.947
2812,444.703
2814,444.657
2816,444.611
2818,444.565
2820,444.537
2822,444.509
2824,444.481
2826,444.645
2828,444.808
2830,444.972
2832,444.933
2834,444.894
2836,444.855
2838,444.63
2840,444.405
2842,444.18
2844,444.048
2846,443.917
2848,443.785
2850,443.965
2852,444.146
2854,444.326
2856,444.118
2858,443.909
2860,443.701
2862,443.871
2864,444.04
2866,444.21
2868,443.751
2870,443.293
2872,442.834
2874,442.709
2876,442.583
2878,442.458
2880,442.577
2882,442.695
2884,442.814
2886,442.813
2888,442.812
2890,442.811
2892,442.666
2894,442.52
2896,442.375
2898,442.414
2900,442.453
2902,442.492
2904,442.278
2906,442.065
2908,441.851
2910,441.733
2912,441.615
2914,441.497
2916,441.516
2918,441.535
2920,441.554
2922,441.5
2924,441.447
2926,441.393
2928,441.407
2930,441.422
2932,441.436
2934,441.389
2936,441.341
2938,441.294
2940,441.177
2942,441.061
2944,440.944
2946,440.743
2948,440.541
2950,440.34
2952,440.461
2954,440.581
2956,440.702
2958,440.72
2960,440.739
2962,440.757
2964,440.493
2966,440.23
2968,439.966
2970,439.998
2972,440.03
2974,440.062
2976,439.929
2978,439.796
2980,439.663
2982,439.599
2984,439.536
2986,439.472
2988,439.493
2990,439.515
2992,439.536
2994,439.386
2996,439.236
2998,439.086
3000,439.283
3002,439.479
3004,439.676
3006,439.346
3008,439.015
3010,438.685
3012,438.731
3014,438.778
3016,438.824
3018,438.66
3020,438.495
3022,438.331
3024,438.687
3026,439.042
3028,439.398
3030,439.195
3032,438.992
3034,438.789
3036,438.555
3038,438.321
3040,438.087
3042,437.928
3044,437.77
3046,437.611
3048,437.555
3050,437.499
3052,437.443
3054,437.611
3056,437.78
3058,437.948
3060,437.896
3062,437.845
3064,437.793
3066,437.547
3068,437.301
3070,437.055
3072,437.11
3074,437.166
3076,437.221
3078,437.084
3080,436.946
3082,436.809
3084,436.668
3086,436.528
3088,436.387
3090,436.516
3092,436.645
3094,436.774
3096,436.659
3098,436.544
3100,436.429
3102,436.253
3104,436.078
3106,435.902
3108,436.058
3110,436.213
3112,436.369
3114,436.014
3116,435.659
3118,435.304
3120,435.331
3122,435.359
3124,435.386
3126,435.439
3128,435.491
3130,435.544
3132,435.494
3134,435.445
3136,435.395
3138,435.29
3140,435.186
3142,435.081
3144,435.066
3146,435.05
3148,435.035
3150,434.991
3152,434.948
3154,434.904
3156,434.63
3158,434.355
3160,434.081
3162,434.377
3164,434.673
3166,434.969
3168,434.738
3170,434.508
3172,434.277
3174,434.324
3176,434.37
3178,434.417
3180,434.354
3182,434.292
3184,434.229
3186,434.226
3188,434.222
3190,434.219
3192,433.886
3194,433.552
3196,433.219
3198,433.439
3200,433.659
3202,433.879
3204,433.863
3206,433.848
3208,433.832
3210,433.573
3212,433.313
3214,433.054
3216,432.949
3218,432.844
3220,432.739
3222,432.665
3224,432.592
3226,432.518
3228,432.729
3230,432.94
3232,433.151
3234,433.022
3236,432.894
3238,432.765
3240,432.674
3242,432.583
3244,432.492
3246,432.273
3248,432.053
3250,431.834
3252,431.739
3254,431.644
3256,431.549
3258,431.557
3260,431.566
3262,431.574
3264,431.565
3266,431.555
3268,431.546
3270,431.443
3272,431.34
3274,431.237
3276,431.213
3278,431.19
3280,431.166
3282,431.033
3284,430.9
3286,430.767
3288,430.718
3290,430.67
3292,430.621
3294,430.642
3296,430.664
3298,430.685
3300,430.762
3600,430.206
3602,430.206
3604,430.206
3606,430.204
3608,430.201
3610,430.199
3612,430.16
3614,430.122
3616,430.083
3618,429.91
3620,429.737
3622,429.564
3624,429.258
3626,428.952
3628,428.646
3630,428.674
3632,428.702
3634,428.73
3636,428.851
3638,428.973
3640,429.094
3642,429.026
3644,428.958
3646,428.89
3648,428.696
3650,428.503
3652,428.309
3654,428.317
3656,428.325
3658,428.333
3660,428.032
3662,427.731
3664,427.43
3666,427.606
3668,427.781
3670,427.957
3672,428.03
3674,428.104
3676,428.177
3678,427.995
3680,427.812
3682,427.63
3684,427.187
3686,426.745
3688,426.302
3690,426.656
3692,427.01
3694,427.364
3696,427.378
3698,427.392
3700,427.406
3702,427.2
3704,426.993
3706,426.787
3708,426.698
3710,426.609
3712,426.52
3714,426.52
3716,426.521
3718,426.521
3720,426.259
3722,425.996
3724,425.734
3726,425.799
3728,425.865
3730,425.93
3732,426.008
3734,426.086
3736,426.164
3738,426.087
3740,426.009
3742,425.932
3744,425.911
3746,425.889
3748,425.868
3750,425.729
3752,425.591
3754,425.452
3756,425.285
3758,425.117
3760,424.95
3762,425.021
3764,425.092
3766,425.163
3768,425.077
3770,424.992
3772,424.906
3774,425.132
3776,425.358
3778,425.584
3780,425.078
3782,424.571
3784,424.065
3786,424.068
3788,424.07
3790,424.073
3792,424.078
3794,424.082
3796,424.087
3798,424.138
3800,424.188
3802,424.239
3804,424.092
3806,423.945
3808,423.798
3810,423.856
3812,423.915
3814,423.973
3816,423.676
3818,423.38
3820,423.083
3822,423.288
3824,423.493
3826,423.698
3828,423.306
3830,422.915
3832,422.523
3834,422.724
3836,422.924
3838,423.125
3840,423.015
3842,422.904
3844,422.794
3846,422.626
3848,422.457
3850,422.289
3852,422.462
3854,422.635
3856,422.808
3858,422.613
3860,422.418
3862,422.223
3864,422.163
3866,422.103
3868,422.043
3870,422.083
3872,422.124
3874,422.164
3876,422.135
3878,422.107
3880,422.078
3882,422.167
3884,422.257
3886,422.346
3888,421.966
3890,421.586
3892,421.206
3894,421.433
3896,421.661
3898,421.888
3900,421.696
3902,421.503
3904,421.311
3906,421.103
3908,420.894
3910,420.686
3912,420.778
3914,420.87
3916,420.962
3918,421.024
3920,421.087
3922,421.149
3924,420.902
3926,420.654
3928,420.407
3930,420.516
3932,420.624
3934,420.733
3936,420.508
3938,420.282
3940,420.057
3942,420.112
3944,420.166
3946,420.221
3948,420.063
3950,419.906
3952,419.748
3954,419.862
3956,419.975
3958,420.089
3960,420.108
3962,420.128
3964,420.147
3966,419.774
3968,419.401
3970,419.028
3972,419.243
3974,419.459
3976,419.674
3978,419.513
3980,419.353
3982,419.192
3984,419.078
3986,418.965
3988,418.851
3990,418.966
3992,419.08
3994,419.195
3996,419.335
3998,419.476
4000,419.616
4002,419.462
4004,419.309
4006,419.155
4008,418.921
4010,418.687
4012,418.453
4014,418.316
4016,418.18
4018,418.043
4020,418.269
4022,418.496
4024,418.722
4026,418.585
4028,418.448
4030,418.311
4032,418.366
4034,418.42
4036,418.475
4038,418.159
4040,417.842
4042,417.526
4044,417.604
4046,417.682
4048,417.76
4050,417.956
4052,418.151
4054,418.347
4056,417.999
4058,417.65
4060,417.302
4062,417.048
4064,416.795
4066,416.541
4068,416.972
4070,417.403
4072,417.834
4074,417.504
4076,417.173
4078,416.843
4080,416.79
4082,416.737
4084,416.684
4086,416.453
4088,416.223
4090,415.992
4092,416.102
4094,416.213
4096,416.323
4098,416.304
4100,416.286
4102,416.267
4104,416.386
4106,416.504
4108,416.623
4110,416.405
4112,416.188
4114,415.97
4116,415.964
4118,415.958
4120,415.952
4122,415.919
4124,415.886
4126,415.853
4128,415.752
4130,415.652
4132,415.551
4134,415.492
4136,415.433
4138,415.374
4140,415.5
4142,415.627
4144,415.753
4146,415.496
4148,415.24
4150,414.983
4152,414.918
4154,414.852
4156,414.787
4158,414.7
4160,414.613
4162,414.526
4164,414.526
4166,414.526
4168,414.526
4170,414.47
4172,414.413
4174,414.357
4176,414.184
4178,414.012
4180,413.839
4182,413.694
4184,413.55
4186,413.405
4188,413.644
4190,413.884
4192,414.123
4194,414.06
4196,413.996
4198,413.933
4200,413.806
4500,413.416
4502,413.416
4504,413.416
4506,413.646
4508,413.877
4510,414.107
4512,414.099
4514,414.091
4516,414.083
4518,414.029
4520,413.974
4522,413.92
4524,413.79
4526,413.659
4528,413.529
4530,413.384
4532,413.238
4534,413.093
4536,413.068
4538,413.043
4540,413.018
4542,413.075
4544,413.131
4546,413.188
4548,412.905
4550,412.621
4552,412.338
4554,412.335
4556,412.332
4558,412.329
4560,412.367
4562,412.404
4564,412.442
4566,412.324
4568,412.205
4570,412.087
4572,412.155
4574,412.223
4576,412.291
4578,412.102
4580,411.912
4582,411.723
4584,411.501
4586,411.28
4588,411.058
4590,411.374
4592,411.69
4594,412.006
4596,411.79
4598,411.574
4600,411.358
4602,411.423
4604,411.489
4606,411.554
4608,411.365
4610,411.177
4612,410.988
4614,411.133
4616,411.279
4618,411.424
4620,411.213
4622,411.003
4624,410.792
4626,410.622
4628,410.453
4630,410.283
4632,410.309
4634,410.335
4636,410.361
4638,410.429
4640,410.496
4642,410.564
4644,410.387
4646,410.21
4648,410.033
